Event #0 ----------------------
  t1[ns]  u1[mV]  t2[ns] u2[mV]
  0.000  -496.9   0.000  -472.3
  0.195  -475.2   0.195  -450.7
  0.391  -443.7   0.391  -410.5
  0.586  -416.9   0.586  -375.0
  0.781  -363.8   0.781  -315.9
  0.977  -331.1   0.977  -276.7
  1.172  -259.0   1.172  -203.9
  1.367  -209.2   1.367  -147.6
  1.562  -144.5   1.562   -80.7
  1.758   -94.1   1.758   -38.1
  1.953   -11.3   1.953    45.1
  2.148    35.3   2.148    94.1
  2.344   117.7   2.344   173.4
  2.539   162.2   2.539   210.8
  2.734   222.1   2.734   269.8
  2.930   267.3   2.930   307.4
  3.125   312.7   3.125   349.0
  3.320   350.5   3.320   375.6
  3.516   399.7   3.516   421.4
  3.711   422.1   3.711   440.7
  3.906   450.3   3.906   467.9
  4.102   464.3   4.102   474.1
  4.297   480.1   4.297   481.3
  4.492   483.5   4.492   481.9
  4.688   482.9   4.688   473.0
  4.883   479.3   4.883   465.3
  5.078   467.9   5.078   443.6
  5.273   446.8   5.273   418.8
  5.469   413.3   5.469   378.3
  5.664   389.2   5.664   353.8
  5.859   342.0   5.859   291.5
  6.055   303.8   6.055   256.6
  6.250   234.3   6.250   175.5
  6.445   198.0   6.445   140.7
  6.641   126.8   6.641    55.7
  6.836    66.6   6.836     5.5
  7.031    -5.0   7.031   -65.1
  7.227   -54.3   7.227  -113.5
  7.422  -130.3   7.422  -187.1
  7.617  -181.7   7.617  -230.3
  7.812  -245.8   7.812  -297.5
  8.008  -281.2   8.008  -325.2
  8.203  -351.7   8.203  -384.9
  8.398  -376.8   8.398  -411.8
  8.594  -427.4   8.594  -455.1
  8.789  -446.0   8.789  -466.6
  8.984  -477.0   8.984  -489.7
  9.180  -489.0   9.180  -495.4
  9.375  -499.9   9.375  -499.9
  9.570  -499.9   9.570  -499.0
  9.766  -499.9   9.766  -487.2
  9.961  -493.2   9.961  -469.7
 10.156  -467.0  10.156  -438.4
 10.352  -446.1  10.352  -412.4
 10.547  -406.9  10.547  -369.0
 10.742  -370.0  10.742  -323.4
 10.938  -315.3  10.938  -261.4
 11.133  -269.1  11.133  -211.3
 11.328  -198.6  11.328  -140.0
 11.523  -146.4  11.523   -86.3
 11.719   -73.8  11.719   -11.0
 11.914   -26.6  11.914    30.5
 12.109    50.4  12.109   105.2
 12.305    97.3  12.305   149.2
 12.500   175.6  12.500   223.0
 12.695   207.1  12.695   258.2
 12.891   273.6  12.891   314.6
 13.086   318.9  13.086   352.4
 13.281   362.5  13.281   390.9
 13.477   397.2  13.477   417.6
 13.672   426.1  13.672   447.4
 13.867   446.8  13.867   463.1
 14.062   468.5  14.062   476.9
 14.258   477.5  14.258   481.7
 14.453   486.5  14.453   480.0
 14.648   485.1  14.648   475.8
 14.844   477.4  14.844   459.1
 15.039   465.9  15.039   444.8
 15.234   445.7  15.234   415.6
 15.430   418.1  15.430   385.5
 15.625   375.0  15.625   331.6
 15.820   344.9  15.820   301.4
 16.016   287.4  16.016   233.2
 16.211   242.1  16.211   186.4
 16.406   179.8  16.406   112.8
 16.602   131.4  16.602    73.9
 16.797    52.3  16.797    -5.4
 16.992    -5.8  16.992   -56.1
 17.188   -65.9  17.188  -128.3
 17.383  -125.8  17.383  -178.3
 17.578  -196.1  17.578  -252.9
 17.773  -239.7  17.773  -287.1
 17.969  -298.6  17.969  -345.2
 18.164  -338.3  18.164  -376.1
 18.359  -389.5  18.359  -424.2
 18.555  -423.3  18.555  -444.7
 18.750  -456.0  18.750  -476.6
 18.945  -474.3  18.945  -485.7
 19.141  -491.5  19.141  -499.9
 19.336  -499.9  19.336  -499.9
 19.531  -499.9  19.531  -499.9
 19.727  -499.9  19.727  -490.8
 19.922  -492.0  19.922  -472.3
 20.117  -474.2  20.117  -444.8
 20.312  -442.1  20.312  -408.9
 20.508  -414.2  20.508  -375.5
 20.703  -362.9  20.703  -316.5
 20.898  -322.9  20.898  -269.8
 21.094  -258.5  21.094  -204.5
 21.289  -210.7  21.289  -153.6
 21.484  -138.1  21.484   -81.6
 21.680   -83.2  21.680   -19.7
 21.875    -8.7  21.875    47.7
 22.070    36.8  22.070    92.3
 22.266   110.4  22.266   159.3
 22.461   160.0  22.461   209.1
 22.656   217.5  22.656   267.6
 22.852   257.6  22.852   297.5
 23.047   321.7  23.047   360.5
 23.242   350.5  23.242   383.7
 23.438   396.6  23.438   424.0
 23.633   417.3  23.633   438.8
 23.828   451.2  23.828   464.3
 24.023   466.5  24.023   473.9
 24.219   481.2  24.219   480.7
 24.414   482.2  24.414   480.6
 24.609   484.3  24.609   475.7
 24.805   481.2  24.805   466.7
 25.000   465.8  25.000   442.0
 25.195   451.4  25.195   425.0
 25.391   420.7  25.391   382.4
 25.586   394.5  25.586   356.0
 25.781   342.6  25.781   292.2
 25.977   308.9  25.977   263.9
 26.172   248.2  26.172   192.8
 26.367   200.1  26.367   146.3
 26.562   128.7  26.562    63.8
 26.758    84.4  26.758    22.6
 26.953     4.7  26.953   -59.2
 27.148   -45.0  27.148  -106.3
 27.344  -112.9  27.344  -172.4
 27.539  -164.8  27.539  -218.8
 27.734  -233.8  27.734  -285.7
 27.930  -276.9  27.930  -324.6
 28.125  -330.8  28.125  -374.8
 28.320  -370.1  28.320  -403.2
 28.516  -417.3  28.516  -448.9
 28.711  -438.1  28.711  -465.3
 28.906  -472.6  28.906  -491.5
 29.102  -489.4  29.102  -497.9
 29.297  -499.9  29.297  -499.9
 29.492  -499.9  29.492  -499.9
 29.688  -499.9  29.688  -488.8
 29.883  -495.7  29.883  -476.7
 30.078  -472.9  30.078  -447.4
 30.273  -450.8  30.273  -412.9
 30.469  -409.2  30.469  -367.4
 30.664  -381.8  30.664  -334.6
 30.859  -322.7  30.859  -273.1
 31.055  -279.3  31.055  -222.5
 31.250  -212.8  31.250  -155.9
 31.445  -168.4  31.445  -107.2
 31.641   -80.5  31.641   -21.7
 31.836   -31.7  31.836    28.1
 32.031    32.7  32.031    87.1
 32.227    72.3  32.227   131.6
 32.422   154.1  32.422   208.8
 32.617   201.5  32.617   252.1
 32.812   258.1  32.812   302.7
 33.008   298.6  33.008   334.9
 33.203   354.5  33.203   386.1
 33.398   386.5  33.398   411.1
 33.594   418.3  33.594   442.6
 33.789   436.5  33.789   454.3
 33.984   462.6  33.984   474.7
 34.180   474.3  34.180   482.0
 34.375   482.6  34.375   482.4
 34.570   486.8  34.570   481.0
 34.766   480.9  34.766   466.8
 34.961   471.6  34.961   453.2
 35.156   449.5  35.156   420.7
 35.352   429.6  35.352   398.0
 35.547   390.6  35.547   346.5
 35.742   351.9  35.742   307.9
 35.938   304.4  35.938   251.0
 36.133   272.1  36.133   222.3
 36.328   203.6  36.328   146.5
 36.523   150.8  36.523    93.3
 36.719    81.2  36.719    14.2
 36.914    31.6  36.914   -25.8
 37.109   -50.4  37.109  -108.6
 37.305   -91.7  37.305  -147.3
 37.500  -168.0  37.500  -219.4
 37.695  -210.3  37.695  -255.5
 37.891  -278.1  37.891  -323.8
 38.086  -316.6  38.086  -354.4
 38.281  -372.5  38.281  -408.3
 38.477  -402.1  38.477  -431.0
 38.672  -435.1  38.672  -462.9
 38.867  -467.2  38.867  -480.8
 39.062  -489.3  39.062  -499.9
 39.258  -496.4  39.258  -499.9
 39.453  -499.9  39.453  -499.9
 39.648  -499.9  39.648  -497.7
 39.844  -498.5  39.844  -479.4
 40.039  -486.2  40.039  -459.9
 40.234  -456.2  40.234  -421.4
 40.430  -429.9  40.430  -390.8
 40.625  -381.5  40.625  -335.0
 40.820  -345.9  40.820  -294.9
 41.016  -286.3  41.016  -231.4
 41.211  -240.3  41.211  -184.5
 41.406  -170.4  41.406  -113.2
 41.602  -121.2  41.602   -58.5
 41.797   -49.6  41.797    11.6
 41.992     9.9  41.992    66.1
 42.188    80.7  42.188   133.5
 42.383   120.8  42.383   173.6
 42.578   191.7  42.578   237.6
 42.773   246.0  42.773   293.4
 42.969   300.7  42.969   332.8
 43.164   333.6  43.164   365.5
 43.359   375.7  43.359   404.2
 43.555   410.9  43.555   429.3
 43.750   439.0  43.750   455.7
 43.945   453.2  43.945   467.6
 44.141   473.7  44.141   480.3
 44.336   481.4  44.336   483.3
 44.531   486.9  44.531   479.7
 44.727   484.2  44.727   474.4
 44.922   472.0  44.922   452.2
 45.117   458.0  45.117   433.3
 45.312   429.6  45.312   396.2
 45.508   405.8  45.508   369.8
 45.703   357.4  45.703   312.9
 45.898   320.8  45.898   271.4
 46.094   268.8  46.094   212.9
 46.289   217.4  46.289   159.1
 46.484   161.0  46.484    97.2
 46.680    97.5  46.680    38.2
 46.875    23.8  46.875   -41.6
 47.070   -23.4  47.070   -84.5
 47.266  -101.0  47.266  -154.6
 47.461  -150.6  47.461  -201.3
 47.656  -219.2  47.656  -265.1
 47.852  -258.9  47.852  -307.9
 48.047  -324.8  48.047  -369.6
 48.242  -364.2  48.242  -400.5
 48.438  -407.1  48.438  -440.7
 48.633  -434.1  48.633  -457.0
 48.828  -467.6  48.828  -487.1
 49.023  -484.4  49.023  -495.1
 49.219  -496.9  49.219  -499.9
 49.414  -499.9  49.414  -499.9
 49.609  -499.9  49.609  -497.7
 49.805  -499.9  49.805  -485.2
 50.000  -485.5  50.000  -459.8
 50.195  -467.7  50.195  -437.8
 50.391  -431.0  50.391  -393.4
 50.586  -397.5  50.586  -353.5
 50.781  -346.9  50.781  -296.1
 50.977  -310.0  50.977  -262.6
 51.172  -246.3  51.172  -190.2
 51.367  -199.7  51.367  -147.8
 51.562  -116.9  51.562   -59.3
 51.758   -77.4  51.758   -21.8
 51.953    10.2  51.953    65.6
 52.148    83.2  52.148   136.8
 52.344   136.0  52.344   192.0
 52.539   183.6  52.539   233.7
 52.734   238.1  52.734   285.0
 52.930   278.5  52.930   317.9
 53.125   340.5  53.125   372.0
 53.320   364.7  53.320   393.3
 53.516   418.4  53.516   436.5
 53.711   431.3  53.711   452.2
 53.906   466.7  53.906   475.2
 54.102   467.9  54.102   477.0
 54.297   486.0  54.297   483.9
 54.492   487.0  54.492   482.0
 54.688   480.6  54.688   466.6
 54.883   474.2  54.883   457.5
 55.078   453.5  55.078   428.9
 55.273   440.7  55.273   411.7
 55.469   402.0  55.469   364.8
 55.664   380.6  55.664   337.9
 55.859   323.9  55.859   271.7
 56.055   291.3  56.055   240.9
 56.250   221.8  56.250   162.0
 56.445   186.8  56.445   129.4
 56.641   113.7  56.641    51.5
 56.836    88.8  56.836    32.1
 57.031    -9.3  57.031   -64.4
 57.227   -47.7  57.227  -109.3
 57.422  -131.6  57.422  -189.3
 57.617  -160.4  57.617  -211.9
 57.812  -235.3  57.812  -286.4
 58.008  -283.0  58.008  -325.7
 58.203  -353.6  58.203  -391.8
 58.398  -373.7  58.398  -406.5
 58.594  -417.7  58.594  -442.7
 58.789  -434.0  58.789  -461.5
 58.984  -475.7  58.984  -491.6
 59.180  -479.9  59.180  -493.6
 59.375  -499.7  59.375  -499.9
 59.570  -499.9  59.570  -499.9
 59.766  -499.9  59.766  -489.9
 59.961  -494.9  59.961  -479.3
 60.156  -471.2  60.156  -445.1
 60.352  -452.5  60.352  -419.8
 60.547  -407.4  60.547  -363.1
 60.742  -379.6  60.742  -330.4
 60.938  -316.6  60.938  -264.7
 61.133  -269.6  61.133  -214.1
 61.328  -204.9  61.328  -149.7
 61.523  -177.7  61.523  -122.7
 61.719   -84.4  61.719   -27.6
 61.914   -36.8  61.914    22.6
 62.109    49.6  62.109    99.9
 62.305    85.3  62.305   139.6
 62.500   161.9  62.500   209.4
 62.695   199.8  62.695   245.6
 62.891   265.2  62.891   306.1
 63.086   296.1  63.086   331.6
 63.281   353.1  63.281   384.2
 63.477   387.0  63.477   412.9
 63.672   424.3  63.672   444.5
 63.867   440.4  63.867   457.1
 64.062   463.2  64.062   473.1
 64.258   475.8  64.258   480.7
 64.453   483.5  64.453   482.2
 64.648   486.2  64.648   479.4
 64.844   481.1  64.844   464.3
 65.039   472.5  65.039   452.1
 65.234   447.2  65.234   416.5
 65.430   431.9  65.430   401.8
 65.625   388.0  65.625   345.7
 65.820   359.9  65.820   315.4
 66.016   289.5  66.016   237.8
 66.211   270.3  66.211   216.1
 66.406   195.6  66.406   133.3
 66.602   154.7  66.602    94.2
 66.797    73.1  66.797     9.4
 66.992    35.8  66.992   -18.7
 67.188   -48.4  67.188  -108.2
 67.383   -94.5  67.383  -149.2
 67.578  -170.8  67.578  -226.1
 67.773  -212.8  67.773  -255.5
 67.969  -282.2  67.969  -328.8
 68.164  -317.6  68.164  -356.0
 68.359  -377.4  68.359  -412.2
 68.555  -391.5  68.555  -424.3
 68.750  -444.8  68.750  -466.9
 68.945  -466.3  68.945  -483.2
 69.141  -490.6  69.141  -499.0
 69.336  -495.9  69.336  -499.5
 69.531  -499.9  69.531  -499.9
 69.727  -499.9  69.727  -494.9
 69.922  -497.1  69.922  -480.2
 70.117  -484.0  70.117  -459.8
 70.312  -456.4  70.312  -425.2
 70.508  -429.4  70.508  -389.8
 70.703  -377.4  70.703  -329.1
 70.898  -342.7  70.898  -298.3
 71.094  -284.7  71.094  -233.9
 71.289  -241.0  71.289  -185.5
 71.484  -171.5  71.484  -114.0
 71.680  -132.8  71.680   -73.7
 71.875   -42.6  71.875    11.2
 72.070    -0.9  72.070    55.1
 72.266    82.0  72.266   136.1
 72.461   115.6  72.461   170.5
 72.656   193.3  72.656   241.1
 72.852   241.7  72.852   289.1
 73.047   300.6  73.047   338.1
 73.242   327.8  73.242   363.0
 73.438   374.2  73.438   401.6
 73.633   403.8  73.633   426.4
 73.828   439.4  73.828   451.2
 74.023   448.9  74.023   462.4
 74.219   472.7  74.219   478.9
 74.414   480.9  74.414   484.2
 74.609   483.8  74.609   477.3
 74.805   483.2  74.805   474.5
 75.000   473.7  75.000   454.4
 75.195   462.9  75.195   439.3
 75.391   431.7  75.391   397.3
 75.586   418.7  75.586   382.4
 75.781   369.8  75.781   324.7
 75.977   327.1  75.977   282.7
 76.172   271.7  76.172   216.5
 76.367   243.7  76.367   186.1
 76.562   167.7  76.562   105.7
 76.758   114.0  76.758    58.6
 76.953    29.6  76.953   -35.6
 77.148   -10.3  77.148   -61.9
 77.344   -76.9  77.344  -138.6
 77.539  -139.5  77.539  -189.0
 77.734  -208.8  77.734  -262.0
 77.930  -239.1  77.930  -282.2
 78.125  -309.6  78.125  -356.5
 78.320  -348.7  78.320  -386.2
 78.516  -399.2  78.516  -428.8
 78.711  -415.7  78.711  -439.6
 78.906  -458.6  78.906  -478.2
 79.102  -479.7  79.102  -490.2
 79.297  -497.7  79.297  -499.9
 79.492  -499.9  79.492  -499.9
 79.688  -499.9  79.688  -499.6
 79.883  -499.9  79.883  -486.5
 80.078  -487.4  80.078  -462.2
 80.273  -471.1  80.273  -440.7
 80.469  -437.2  80.469  -398.3
 80.664  -407.2  80.664  -365.6
 80.859  -352.6  80.859  -303.5
 81.055  -328.3  81.055  -272.0
 81.250  -255.0  81.250  -200.3
 81.445  -213.7  81.445  -155.2
 81.641  -132.7  81.641   -74.7
 81.836   -91.3  81.836   -35.3
 82.031    -9.7  82.031    48.4
 82.227    42.2  82.227    97.8
 82.422   118.0  82.422   174.7
 82.617   156.4  82.617   199.8
 82.812   222.1  82.812   268.8
 83.008   264.5  83.008   302.2
 83.203   327.7  83.203   358.4
 83.398   352.9  83.398   379.4
 83.594   397.8  83.594   420.6
 83.789   417.7  83.789   440.7
 83.984   451.2  83.984   465.2
 84.180   459.9  84.180   472.9
 84.375   479.2  84.375   483.2
 84.570   487.5  84.570   483.5
 84.766   484.1  84.766   474.2
 84.961   482.6  84.961   468.8
 85.156   469.2  85.156   445.9
 85.352   453.5  85.352   427.2
 85.547   416.5  85.547   380.5
 85.742   396.3  85.742   355.9
 85.938   336.2  85.938   285.2
 86.133   305.0  86.133   253.3
 86.328   237.0  86.328   179.2
 86.523   208.8  86.523   151.6
 86.719   122.1  86.719    66.5
 86.914    79.3  86.914    18.0
 87.109    -0.2  87.109   -60.4
 87.305   -40.0  87.305   -95.1
 87.500  -129.6  87.500  -182.8
 87.695  -164.4  87.695  -217.5
 87.891  -248.8  87.891  -296.5
 88.086  -278.2  88.086  -315.9
 88.281  -339.3  88.281  -380.7
 88.477  -369.0  88.477  -400.8
 88.672  -420.8  88.672  -451.5
 88.867  -438.2  88.867  -461.7
 89.062  -474.9  89.062  -484.8
 89.258  -484.6  89.258  -495.7
 89.453  -499.9  89.453  -499.9
 89.648  -499.9  89.648  -499.9
 89.844  -499.9  89.844  -490.8
 90.039  -495.6  90.039  -478.9
 90.234  -475.8  90.234  -445.2
 90.430  -457.7  90.430  -426.7
 90.625  -412.9  90.625  -371.0
 90.820  -377.8  90.820  -331.6
 91.016  -309.8  91.016  -258.6
 91.211  -287.4  91.211  -231.1
 91.406  -217.6  91.406  -155.0
 91.602  -163.3  91.602  -106.3
 91.797   -72.4  91.797   -19.4
 91.992   -42.8  91.992    12.4
 92.188    31.9  92.188    85.8
 92.383    74.4  92.383   130.1
 92.578   165.7  92.578   209.3
 92.773   199.7  92.773   246.9
 92.969   256.6  92.969   299.0
 93.164   293.2  93.164   331.4
 93.359   346.1  93.359   381.6
 93.555   377.2  93.555   402.1
 93.750   420.7  93.750   439.4
 93.945   436.8  93.945   454.3
 94.141   463.8  94.141   472.9
 94.336   472.6  94.336   480.5
 94.531   483.6  94.531   481.9
 94.727   488.7  94.727   484.6
 94.922   481.8  94.922   465.8
 95.117   476.0  95.117   457.9
 95.312   455.4  95.312   426.7
 95.508   436.2  95.508   403.7
 95.703   390.7  95.703   347.6
 95.898   373.7  95.898   330.5
 96.094   309.5  96.094   259.9
 96.289   276.8  96.289   225.3
 96.484   200.2  96.484   145.4
 96.680   163.1  96.680   106.1
 96.875    82.8  96.875    18.4
 97.070    38.4  97.070   -19.3
 97.266   -61.9  97.266  -116.0
 97.461   -87.5  97.461  -143.7
 97.656  -168.0  97.656  -225.5
 97.852  -224.7  97.852  -268.0
 98.047  -278.3  98.047  -325.5
 98.242  -315.2  98.242  -347.8
 98.438  -369.1  98.438  -406.0
 98.633  -400.4  98.633  -426.3
 98.828  -447.8  98.828  -467.2
 99.023  -461.4  99.023  -475.9
 99.219  -487.6  99.219  -496.2
 99.414  -499.9  99.414  -499.9
 99.609  -499.9  99.609  -499.9
 99.805  -499.9  99.805  -496.4
100.000  -494.7 100.000  -474.9
100.195  -480.6 100.195  -453.7
100.391  -451.6 100.391  -416.0
100.586  -428.1 100.586  -389.9
100.781  -382.7 100.781  -334.1
100.977  -339.1 100.977  -286.5
101.172  -272.9 101.172  -217.9
101.367  -233.3 101.367  -180.7
101.562  -154.8 101.562   -93.8
101.758  -108.7 101.758   -44.7
101.953   -13.3 101.953    38.4
102.148    16.6 102.148    71.6
102.344    87.2 102.344   138.6
102.539   138.8 102.539   187.9
102.734   205.9 102.734   252.3
102.930   247.8 102.930   287.0
103.125   303.2 103.125   342.3
103.320   341.0 103.320   374.6
103.516   392.4 103.516   416.5
103.711   413.3 103.711   434.1
103.906   444.6 103.906   458.9
104.102   462.0 104.102   472.7
104.297   481.3 104.297   482.5
104.492   484.6 104.492   483.8
104.688   486.0 104.688   476.9
104.883   483.8 104.883   470.5
105.078   467.8 105.078   444.0
105.273   457.1 105.273   431.4
105.469   425.6 105.469   389.3
105.664   395.0 105.664   356.0
105.859   348.0 105.859   300.4
106.055   316.3 106.055   270.3
106.250   250.9 106.250   197.7
106.445   215.1 106.445   160.2
106.641   131.8 106.641    72.8
106.836   101.4 106.836    40.9
107.031    15.1 107.031   -49.5
107.227   -34.8 107.227   -96.1
107.422  -115.4 107.422  -173.0
107.617  -143.8 107.617  -197.3
107.812  -228.3 107.812  -280.4
108.008  -266.7 108.008  -312.7
108.203  -336.2 108.203  -376.4
108.398  -356.3 108.398  -393.2
108.594  -411.6 108.594  -437.0
108.789  -432.5 108.789  -460.5
108.984  -467.6 108.984  -481.9
109.180  -480.9 109.180  -491.3
109.375  -498.6 109.375  -499.9
109.570  -499.9 109.570  -499.9
109.766  -499.9 109.766  -492.4
109.961  -496.1 109.961  -482.0
110.156  -476.1 110.156  -450.3
110.352  -459.2 110.352  -424.4
110.547  -415.4 110.547  -373.6
110.742  -390.1 110.742  -347.1
110.938  -333.7 110.938  -285.0
111.133  -285.8 111.133  -232.6
111.328  -223.2 111.328  -163.5
111.523  -184.8 111.523  -127.2
111.719  -102.5 111.719   -48.8
111.914   -64.4 111.914    -2.3
112.109    25.4 112.109    79.1
112.305    62.8 112.305   116.7
112.500   145.9 112.500   192.4
112.695   196.2 112.695   242.1
112.891   255.6 112.891   302.3
113.086   292.9 113.086   321.5
113.281   345.6 113.281   378.8
113.477   375.1 113.477   402.6
113.672   421.8 113.672   439.3
113.867   436.5 113.867   453.5
114.062   464.0 114.062   471.2
114.258   477.2 114.258   479.8
114.453   483.4 114.453   482.0
114.648   484.9 114.648   480.5
114.844   479.0 114.844   464.9
115.039   473.0 115.039   453.9
115.234   447.7 115.234   418.7
115.430   435.4 115.430   405.6
115.625   393.3 115.625   348.8
115.820   357.5 115.820   311.5
116.016   297.1 116.016   243.7
116.211   271.4 116.211   221.6
116.406   208.8 116.406   150.1
116.602   155.3 116.602    96.9
116.797    73.6 116.797    14.3
116.992    28.8 116.992   -26.9
117.188   -48.7 117.188  -113.2
117.383  -113.3 117.383  -166.0
117.578  -178.1 117.578  -230.1
117.773  -216.2 117.773  -265.1
117.969  -281.9 117.969  -330.6
118.164  -316.7 118.164  -355.0
118.359  -377.8 118.359  -411.2
118.555  -396.8 118.555  -424.5
118.750  -437.3 118.750  -462.8
118.945  -461.9 118.945  -480.6
119.141  -491.6 119.141  -499.8
119.336  -496.6 119.336  -497.4
119.531  -499.9 119.531  -499.9
119.727  -499.9 119.727  -493.9
119.922  -495.7 119.922  -477.2
120.117  -482.6 120.117  -457.2
120.312  -454.8 120.312  -419.4
120.508  -423.0 120.508  -384.3
120.703  -371.6 120.703  -321.7
120.898  -347.1 120.898  -297.9
121.094  -282.2 121.094  -224.6
121.289  -247.9 121.289  -186.8
121.484  -165.8 121.484  -101.9
